#SIR mereno
#Trig 1000ms
#
#t12[ms]	AFFT
#			
2	0.03093
4	0.02480
6	0.01844
8	0.01319
10	0.00848
13	0.00224
15	0.00193
17	0.00537
19	0.00816
22	0.01229
25	0.01325
26	0.01700
30	0.02075
35	0.02426
40	0.02739
50	0.03202
60	0.03439
80	0.03747
100	0.03805